wav,absorbance
1100,0.04794649
1099,0.048309896
1098,0.048673429
1097,0.048980877
1096,0.049361445
1095,0.049754746
1094,0.049747605
1093,0.050212093
1092,0.050607208
1091,0.050996136
1090,0.051571753
1089,0.051902615
1088,0.05227603
1087,0.052686501
1086,0.053020496
1085,0.053405236
1084,0.053908266
1083,0.054293677
1082,0.05468915
1081,0.054984406
1080,0.055563133
1079,0.055899315
1078,0.05627171
1077,0.056732759
1076,0.057298608
1075,0.057629135
1074,0.058022626
1073,0.058545314
1072,0.059125129
1071,0.059409078
1070,0.06001142
1069,0.060472086
1068,0.06092529
1067,0.061551213
1066,0.061725143
1065,0.062121648
1064,0.062700883
1063,0.063099988
1062,0.063628256
1061,0.064221561
1060,0.064730704
1059,0.065216348
1058,0.065738007
1057,0.066279754
1056,0.066763535
1055,0.067330949
1054,0.067889452
1053,0.068423517
1052,0.068946444
1051,0.069332384
1050,0.06998013
1049,0.070539102
1048,0.071113177
1047,0.07165239
1046,0.072233409
1045,0.072801776
1044,0.073398016
1043,0.074096806
1042,0.07469894
1041,0.075536422
1040,0.075702019
1039,0.076287538
1038,0.076979868
1037,0.077619635
1036,0.078222461
1035,0.078948937
1034,0.079579361
1033,0.080202572
1032,0.081010126
1031,0.081636615
1030,0.082237639
1029,0.082905971
1028,0.083609976
1027,0.08424592
1026,0.085022211
1025,0.085813209
1024,0.086452261
1023,0.087143503
1022,0.087824121
1021,0.088636339
1020,0.089479975
1019,0.090329491
1018,0.090947174
1017,0.091461644
1016,0.092360772
1015,0.093035035
1014,0.093945555
1013,0.094712004
1012,0.095563017
1011,0.096379347
1010,0.097207956
1009,0.09795323
1008,0.098726824
1007,0.099747494
1006,0.100560799
1005,0.101489119
1004,0.102316119
1003,0.103219867
1002,0.10412731
1001,0.105023466
1000,0.106059723
999,0.107013993
998,0.107887991
997,0.108804621
996,0.109852947
995,0.110806681
994,0.111778684
993,0.112757631
992,0.113867097
991,0.114719749
990,0.115864731
989,0.116874456
988,0.118040159
987,0.119229741
986,0.120240703
985,0.121339701
984,0.122387879
983,0.123503991
982,0.124683991
981,0.125866443
980,0.12695697
979,0.128082708
978,0.129315421
977,0.130595923
976,0.131904364
975,0.133114904
974,0.134431228
973,0.135749176
972,0.136909559
971,0.13839826
970,0.13959986
969,0.140907034
968,0.142586425
967,0.143563062
966,0.144981489
965,0.146408036
964,0.148027867
963,0.149423808
962,0.150999636
961,0.152570248
960,0.154111132
959,0.155680791
958,0.157238752
957,0.158944845
956,0.160711229
955,0.1624033
954,0.164091438
953,0.166148871
952,0.167852491
951,0.169580758
950,0.17139037
949,0.173207149
948,0.175083131
947,0.176857546
946,0.178731978
945,0.18075408
944,0.182688445
943,0.184756726
942,0.186645269
941,0.188667059
940,0.190892473
939,0.193001241
938,0.195182756
937,0.197406381
936,0.199494466
935,0.201841295
934,0.20421575
933,0.206531078
932,0.208888412
931,0.211476475
930,0.213774279
929,0.216330111
928,0.218933985
927,0.221427128
926,0.223997057
925,0.226817474
924,0.229627475
923,0.232189357
922,0.235028431
921,0.238051593
920,0.240796462
919,0.244026527
918,0.246646032
917,0.249743074
916,0.252821773
915,0.256002545
914,0.25923118
913,0.262495756
912,0.265794635
911,0.269204706
910,0.272553355
909,0.276023716
908,0.279506296
907,0.283113629
906,0.286802858
905,0.290511042
904,0.294260413
903,0.298024535
902,0.301867634
901,0.305782825
900,0.309905618
899,0.311048746
898,0.3152996
897,0.321432084
896,0.324398726
895,0.328339756
894,0.333669901
893,0.337522417
892,0.343237877
891,0.346285164
890,0.352240115
889,0.355680406
888,0.360653788
887,0.366621465
886,0.369833022
885,0.37700522
884,0.379534096
883,0.384405494
882,0.39234525
881,0.395051599
880,0.402854413
879,0.406552613
878,0.41264239
877,0.417753041
876,0.423068881
875,0.429156989
874,0.434257716
873,0.4402861
872,0.446471453
871,0.452189684
870,0.458350301
869,0.465662181
868,0.470551342
867,0.477146834
866,0.483081818
865,0.490116596
864,0.496615261
863,0.50385952
862,0.509887397
861,0.516549051
860,0.523918748
859,0.530584395
858,0.536964059
857,0.543936849
856,0.550843298
855,0.558103085
854,0.565395117
853,0.572369933
852,0.579448998
851,0.586746037
850,0.594611704
849,0.601996422
848,0.609970689
847,0.61670357
846,0.624530733
845,0.631684423
844,0.639514387
843,0.647110403
842,0.654744506
841,0.661843956
840,0.669486582
839,0.677548349
838,0.685054123
837,0.69259578
836,0.70057857
835,0.707532823
834,0.715169013
833,0.722916722
832,0.730356813
831,0.737906337
830,0.745119155
829,0.75257802
828,0.760106087
827,0.767179012
826,0.774392545
825,0.781437874
824,0.788691878
823,0.795569599
822,0.802426159
821,0.809575319
820,0.81604296
819,0.82308346
818,0.829512119
817,0.836137235
816,0.842532694
815,0.848584712
814,0.854423285
813,0.860622585
812,0.865801454
811,0.871677101
810,0.876866341
809,0.882135153
808,0.887102723
807,0.891602576
806,0.89604336
805,0.900354445
804,0.904704571
803,0.908272326
802,0.911884427
801,0.915192485
800,0.91843158
799,0.920838237
798,0.923157215
797,0.925645828
796,0.927403927
795,0.929245472
794,0.930429161
793,0.931625903
792,0.932571173
791,0.933330953
790,0.933401704
789,0.933415532
788,0.933089256
787,0.932480514
786,0.931763232
785,0.930353701
784,0.929136932
783,0.926957667
782,0.924702108
781,0.922447383
780,0.919695258
779,0.916666269
778,0.913060188
777,0.90943712
776,0.905052245
775,0.900846303
774,0.895742476
773,0.890729308
772,0.88528955
771,0.879506469
770,0.873393178
769,0.866826832
768,0.859869361
767,0.852561414
766,0.845162392
765,0.837598801
764,0.829516947
763,0.820929647
762,0.812492609
761,0.803674042
760,0.794727743
759,0.78536886
758,0.775608659
757,0.766353309
756,0.756670773
755,0.746654749
754,0.736519277
753,0.726279259
752,0.715812624
751,0.705011785
750,0.694623351
749,0.683807373
748,0.672818542
747,0.661949217
746,0.650324583
745,0.639266789
744,0.627890647
743,0.616649211
742,0.604989529
741,0.593283713
740,0.581727743
739,0.570180535
738,0.55861485
737,0.546980441
736,0.53543818
735,0.523659527
734,0.512230098
733,0.500613332
732,0.489429265
731,0.477939665
730,0.46676904
729,0.45557788
728,0.444480598
727,0.433703303
726,0.422709137
725,0.411865234
724,0.401552647
723,0.391337484
722,0.381131023
721,0.371143401
720,0.361351341
719,0.351556927
718,0.342204154
717,0.332781434
716,0.323936194
715,0.315035135
714,0.306185126
713,0.297793359
712,0.289423823
711,0.28147009
710,0.274089396
709,0.266115546
708,0.25877741
707,0.251371861
706,0.24393791
705,0.237231538
704,0.230430201
703,0.223774508
702,0.217418119
701,0.211135656
700,0.20527786
699,0.199602574
698,0.194119155
697,0.188801825
696,0.183772624
695,0.178765267
694,0.173999682
693,0.169268861
692,0.164988697
691,0.160751134
690,0.156574011
689,0.152644783
688,0.148906425
687,0.145259991
686,0.141933128
685,0.138468504
684,0.135265485
683,0.13220413
682,0.129506379
681,0.126614988
680,0.123808712
679,0.121147163
678,0.118720613
677,0.116426766
676,0.114348367
675,0.112262666
674,0.110345937
673,0.108426333
672,0.106631503
671,0.104801655
670,0.10320355
669,0.101617225
668,0.100261904
667,0.098760225
666,0.097302228
665,0.09608002
664,0.094780996
663,0.093740955
662,0.092560589
661,0.091468006
660,0.09052927
659,0.089596882
658,0.088666692
657,0.088015877
656,0.087281592
655,0.086323656
654,0.0858474
653,0.084712841
652,0.084107913
651,0.083584845
650,0.082958072
649,0.082397453
648,0.082087353
647,0.081767559
646,0.081333227
645,0.081057072
644,0.080677845
643,0.080452263
642,0.080444098
641,0.080276027
640,0.079261407
639,0.07919775
638,0.079219282
637,0.079124913
636,0.079092331
635,0.078985885
634,0.079177156
633,0.079113081
632,0.079118758
631,0.079149701
630,0.079270199
629,0.079484008
628,0.079726197
627,0.080030829
626,0.080304712
625,0.080527164
624,0.080959901
623,0.081146903
622,0.081567615
621,0.081968628
620,0.082377963
619,0.083016954
618,0.083466023
617,0.084101379
616,0.084770225
615,0.085415088
614,0.085980468
613,0.086874947
612,0.087629609
611,0.088395603
610,0.089288339
609,0.090306796
608,0.091135196
607,0.092036493
606,0.093251333
605,0.094395682
604,0.095474869
603,0.096642233
602,0.09786129
601,0.099049956
600,0.10037902
599,0.101755969
598,0.103274792
597,0.104705416
596,0.106357046
595,0.107651807
594,0.109247014
593,0.110990606
592,0.112850331
591,0.115069918
590,0.116977222
589,0.118792169
588,0.120689206
587,0.122707516
586,0.124793351
585,0.126884088
584,0.12913762
583,0.131417662
582,0.133920848
581,0.136371672
580,0.138615549
579,0.141045928
578,0.143628553
577,0.146120593
576,0.148662075
575,0.151246756
574,0.153856874
573,0.156511992
572,0.158946559
571,0.161818042
570,0.164343253
569,0.16684024
568,0.169641122
567,0.17242901
566,0.175081864
565,0.177508399
564,0.179983333
563,0.182625443
562,0.185206473
561,0.187822208
560,0.190417871
559,0.193058074
558,0.195701644
557,0.198345706
556,0.200803623
555,0.203507066
554,0.205545217
553,0.208166137
552,0.210652992
551,0.213225499
550,0.215767875
549,0.218309477
548,0.220910296
547,0.223485395
546,0.226108253
545,0.22862345
544,0.231344521
543,0.233905703
542,0.236420572
541,0.23860009
540,0.240978211
539,0.243469819
538,0.245977029
537,0.248614147
536,0.251060963
535,0.253583789
534,0.255701125
533,0.257967532
532,0.260076702
531,0.262188703
530,0.264108688
529,0.266021639
528,0.267846555
527,0.269537419
526,0.271252334
525,0.272541523
524,0.274000734
523,0.275224209
522,0.276353061
521,0.277341813
520,0.277567864
519,0.278138936
518,0.278605819
517,0.278814286
516,0.279275447
515,0.279276192
514,0.278969497
513,0.27841726
512,0.277722299
511,0.276964098
510,0.276000768
509,0.274736673
508,0.272830427
507,0.271548957
506,0.270239949
505,0.268081158
504,0.265523374
503,0.263079852
502,0.260544717
501,0.258020848
500,0.255438119
499,0.252688736
498,0.250225931
497,0.247691214
496,0.245245412
495,0.242738649
494,0.240490168
493,0.237259433
492,0.235125884
491,0.233283997
490,0.231287241
489,0.229576036
488,0.227730721
487,0.226137623
486,0.224776879
485,0.223434597
484,0.222176135
483,0.22104606
482,0.220205456
481,0.219499692
480,0.218709528
479,0.218083248
478,0.217408299
477,0.217036709
476,0.216153443
475,0.215883061
474,0.215654552
473,0.215524942
472,0.215265855
471,0.215140775
470,0.215199232
469,0.21524775
468,0.215093657
467,0.215192989
466,0.214995131
465,0.214916483
464,0.215202421
463,0.21541895
462,0.215664506
461,0.215992004
460,0.216114566
459,0.216422811
458,0.216751188
457,0.216895074
456,0.217255488
455,0.217449591
454,0.217850089
453,0.21817714
452,0.218680009
451,0.219069719
450,0.219237581
449,0.219476044
448,0.21992901
447,0.220241994
446,0.220721439
445,0.22120361
444,0.221475571
443,0.222059101
442,0.22256732
441,0.222799271
440,0.223269343
439,0.22363539
438,0.224243611
437,0.224719554
436,0.224579334
435,0.22563453
434,0.226099581
433,0.226645693
432,0.226955265
431,0.227380663
430,0.227627918
429,0.227942735
428,0.22853832
427,0.229116112
426,0.229797885
425,0.230772078
424,0.230900154
423,0.231348932
422,0.231841415
421,0.232295051
420,0.232782468
419,0.233285502
418,0.233684823
417,0.234094366
416,0.234424427
415,0.235038221
414,0.235733047
413,0.236375779
412,0.237021372
411,0.23758024
410,0.237950936
409,0.238503382
408,0.239175364
407,0.239742592
406,0.240131244
405,0.240730003
404,0.240942419
403,0.241462797
402,0.242136717
401,0.242467299
400,0.243260607
